EXPLAIN
TAG	CORPOT
TITLE	LABEL	Open Circuit Potential	Test &Identifier
DATE	LABEL	12/10/2019	Date
TIME	LABEL	10:38:25	Time
NOTES	NOTES	1	&Notes...
	
PSTAT	PSTAT	REF600-16093	Potentiostat
TIMEOUT	QUANT	1.20000E+004	Total &Time (s)
SAMPLETIME	QUANT	5.00000E-001	Sa&mple Period (s)
STABILITY	QUANT	0.00000E+000	Sta&bility (mV/s)
PSTATMODEL	IQUANT	4	Pstat Model
PSTATSECTION	LABEL	REF600-16093	Pstat Section
PSTATSERIALNO	LABEL	16093	Pstat Serial Number
CTRLMODE	IQUANT	1	Control Mode
IESTAB	IQUANT	2	I/E Stability
CASPEED	IQUANT	2	Control Amp Speed
CONVENTION	IQUANT	1	Current Convention
ICHRANGE	IQUANT	2	Ich Range
ICHRANGEMODE	TOGGLE	T	Ich Auto Range
ICHOFFSETENABLE	TOGGLE	F	Ich Offset Enable
ICHOFFSET	QUANT	0	Ich Offset (V)
ICHFILTER	IQUANT	3	Ich Filter
VCHRANGE	IQUANT	3	Vch Range
VCHRANGEMODE	TOGGLE	T	Vch Auto Range
VCHOFFSETENABLE	TOGGLE	F	Vch Offset Enable
VCHOFFSET	QUANT	0	Vch Offset (V)
VCHFILTER	IQUANT	3	Vch Filter
ACHRANGE	IQUANT	2	Ach Range
ACHOFFSETENABLE	TOGGLE	F	Ach Offset Enable
ACHOFFSET	QUANT	0	Ach Offset (V)
ACHFILTER	IQUANT	1	Ach Filter
IERANGELOWERLIMIT	IQUANT	1	I/E Range Lower Limit
IERANGEMODE	TOGGLE	T	I/E AutoRange
IERANGE	IQUANT	10	I/E Range
POSFEEDENABLE	TOGGLE	F	Positive Feedback IR Comp
POSFEEDRESISTANCE	QUANT	0	Positive Feedback Resistance (ohm)
ACHSELECT	IQUANT	0	Ach Select
CABLEID	IQUANT	14	Cable ID
DCCALDATE	LABEL	11/5/2019	DC Calibration Date
ACCALDATE	LABEL		AC Calibration Date
THERMOSELECT	IQUANT	1	Thermo Select
FRAMEWORKVERSION	QUANT	6.12	Framework Version
INSTRUMENTVERSION	LABEL	3.11	Instrument Version
CURVE	TABLE	49
	Pt	T	Vf	Vm	Ach	Over
	#	s	V vs. Ref.	V	V	bits
	0	0.51	1.59861E-001	1.59861E-001	7.75919E-005	...........
	1	1.02	1.59860E-001	1.59769E-001	7.98919E-005	...........
	2	1.53	1.59849E-001	1.59672E-001	8.70085E-005	...........
	3	2.04	1.59810E-001	1.59233E-001	8.77751E-005	...........
	4	2.55	1.59708E-001	1.58602E-001	7.53086E-005	...........
	5	3.06	1.59488E-001	1.57919E-001	7.75253E-005	...........
	6	3.57	1.59116E-001	1.57383E-001	7.80586E-005	...........
	7	4.08	1.58612E-001	1.56822E-001	7.46087E-005	...........
	8	4.59	1.58042E-001	1.56464E-001	7.89086E-005	...........
	9	5.1	1.57479E-001	1.56167E-001	7.51920E-005	...........
	10	5.61	1.56977E-001	1.55891E-001	8.27585E-005	...........
	11	6.12	1.56555E-001	1.55454E-001	8.88084E-005	...........
	12	6.63	1.56187E-001	1.54901E-001	8.10419E-005	...........
	13	7.14	1.55819E-001	1.54404E-001	7.74753E-005	...........
	14	7.65	1.55406E-001	1.53878E-001	8.02586E-005	...........
	15	8.16	1.54941E-001	1.53364E-001	7.96253E-005	...........
	16	8.67	1.54443E-001	1.52948E-001	7.68086E-005	...........
	17	9.18	1.53939E-001	1.52451E-001	7.64586E-005	...........
	18	9.69	1.53448E-001	1.52163E-001	8.20919E-005	...........
	19	10.2	1.52984E-001	1.51652E-001	9.08917E-005	...........
	20	10.71	1.52554E-001	1.51547E-001	8.38585E-005	...........
	21	11.22	1.52158E-001	1.50998E-001	8.10919E-005	...........
	22	11.73	1.51787E-001	1.50398E-001	8.05752E-005	...........
	23	12.24	1.51402E-001	1.49971E-001	7.66920E-005	...........
	24	12.75	1.50967E-001	1.49329E-001	7.58253E-005	...........
	25	13.26	1.50487E-001	1.49247E-001	7.51420E-005	...........
	26	13.77	1.50002E-001	1.48596E-001	8.08086E-005	...........
	27	14.28	1.49548E-001	1.48350E-001	8.81251E-005	...........
	28	14.79	1.49129E-001	1.48030E-001	8.04586E-005	...........
	29	15.3	1.48736E-001	1.47397E-001	7.60086E-005	...........
	30	15.81	1.48346E-001	1.46963E-001	7.13087E-005	...........
	31	16.32	1.47926E-001	1.46333E-001	7.82253E-005	...........
	32	16.83	1.47460E-001	1.45923E-001	7.61753E-005	...........
	33	17.34	1.46964E-001	1.45633E-001	7.91419E-005	...........
	34	17.85	1.46480E-001	1.45360E-001	7.86919E-005	...........
	35	18.36	1.46052E-001	1.45157E-001	8.63085E-005	...........
	36	18.87	1.45696E-001	1.44706E-001	7.94086E-005	...........
	37	19.38	1.45379E-001	1.44093E-001	7.67420E-005	...........
	38	19.89	1.45040E-001	1.43596E-001	7.75086E-005	...........
	39	20.4	1.44636E-001	1.43261E-001	7.69253E-005	...........
	40	20.91	1.44179E-001	1.42689E-001	7.62086E-005	...........
	41	21.42	1.43705E-001	1.42263E-001	7.45420E-005	...........
	42	21.93	1.43240E-001	1.42264E-001	7.65753E-005	...........
	43	22.44	1.42812E-001	1.41533E-001	8.18752E-005	...........
	44	22.95	1.42415E-001	1.40715E-001	7.12420E-005	...........
	45	23.46	1.42009E-001	1.41422E-001	7.18587E-005	...........
	46	23.97	1.41598E-001	1.40101E-001	7.49253E-005	...........
	47	24.48	1.41212E-001	1.39945E-001	7.14254E-005	...........
	48	24.99	1.40827E-001	1.39584E-001	7.55586E-005	...........
EXPERIMENTABORTED	TOGGLE	T	Experiment Aborted
