EXPLAIN
TAG	CORPOT
TITLE	LABEL	Open Circuit Potential	Test &Identifier
DATE	LABEL	12/10/2019	Date
TIME	LABEL	10:45:20	Time
NOTES	NOTES	1	&Notes...
	
PSTAT	PSTAT	REF600-16093	Potentiostat
TIMEOUT	QUANT	1.20000E+004	Total &Time (s)
SAMPLETIME	QUANT	5.00000E-001	Sa&mple Period (s)
STABILITY	QUANT	0.00000E+000	Sta&bility (mV/s)
PSTATMODEL	IQUANT	4	Pstat Model
PSTATSECTION	LABEL	REF600-16093	Pstat Section
PSTATSERIALNO	LABEL	16093	Pstat Serial Number
CTRLMODE	IQUANT	1	Control Mode
IESTAB	IQUANT	2	I/E Stability
CASPEED	IQUANT	2	Control Amp Speed
CONVENTION	IQUANT	1	Current Convention
ICHRANGE	IQUANT	2	Ich Range
ICHRANGEMODE	TOGGLE	T	Ich Auto Range
ICHOFFSETENABLE	TOGGLE	F	Ich Offset Enable
ICHOFFSET	QUANT	0	Ich Offset (V)
ICHFILTER	IQUANT	3	Ich Filter
VCHRANGE	IQUANT	3	Vch Range
VCHRANGEMODE	TOGGLE	T	Vch Auto Range
VCHOFFSETENABLE	TOGGLE	F	Vch Offset Enable
VCHOFFSET	QUANT	0	Vch Offset (V)
VCHFILTER	IQUANT	3	Vch Filter
ACHRANGE	IQUANT	2	Ach Range
ACHOFFSETENABLE	TOGGLE	F	Ach Offset Enable
ACHOFFSET	QUANT	0	Ach Offset (V)
ACHFILTER	IQUANT	1	Ach Filter
IERANGELOWERLIMIT	IQUANT	1	I/E Range Lower Limit
IERANGEMODE	TOGGLE	T	I/E AutoRange
IERANGE	IQUANT	10	I/E Range
POSFEEDENABLE	TOGGLE	F	Positive Feedback IR Comp
POSFEEDRESISTANCE	QUANT	0	Positive Feedback Resistance (ohm)
ACHSELECT	IQUANT	0	Ach Select
CABLEID	IQUANT	14	Cable ID
DCCALDATE	LABEL	11/5/2019	DC Calibration Date
ACCALDATE	LABEL		AC Calibration Date
THERMOSELECT	IQUANT	1	Thermo Select
FRAMEWORKVERSION	QUANT	6.12	Framework Version
INSTRUMENTVERSION	LABEL	3.11	Instrument Version
EXPERIMENTABORTED	TOGGLE	T	Experiment Aborted
CURVE	TABLE	797
	Pt	T	Vf	Vm	Ach	Over
	#	s	V vs. Ref.	V	V	bits
	0	0.51	6.56592E-002	6.56592E-002	8.17086E-005	...........
	1	1.02	6.56648E-002	6.59507E-002	7.97919E-005	...........
	2	1.53	6.56962E-002	6.60826E-002	7.84419E-005	...........
	3	2.04	6.57654E-002	6.56563E-002	7.85086E-005	...........
	4	2.55	6.58229E-002	6.51165E-002	7.88753E-005	...........
	5	3.06	6.57703E-002	6.47558E-002	7.73419E-005	...........
	6	3.57	6.55633E-002	6.48181E-002	8.16919E-005	...........
	7	4.08	6.52747E-002	6.48822E-002	7.89753E-005	...........
	8	4.59	6.50323E-002	6.50315E-002	7.67586E-005	...........
	9	5.1	6.49262E-002	6.57269E-002	7.47087E-005	...........
	10	5.61	6.49918E-002	6.59377E-002	7.77753E-005	...........
	11	6.12	6.52035E-002	6.55356E-002	7.92586E-005	...........
	12	6.63	6.54386E-002	6.49920E-002	7.85086E-005	...........
	13	7.14	6.55339E-002	6.48621E-002	7.83419E-005	...........
	14	7.65	6.54317E-002	6.48914E-002	7.70420E-005	...........
	15	8.16	6.52196E-002	6.47353E-002	7.90753E-005	...........
	16	8.67	6.50218E-002	6.50174E-002	7.91919E-005	...........
	17	9.18	6.49121E-002	6.52497E-002	8.43252E-005	...........
	18	9.69	6.49247E-002	6.58115E-002	7.52753E-005	...........
	19	10.2	6.50641E-002	6.55507E-002	7.57920E-005	...........
	20	10.71	6.52644E-002	6.50198E-002	7.72919E-005	...........
	21	11.22	6.53920E-002	6.49251E-002	7.66920E-005	...........
	22	11.73	6.53557E-002	6.46789E-002	7.53420E-005	...........
	23	12.24	6.51884E-002	6.47931E-002	7.09420E-005	...........
	24	12.75	6.50018E-002	6.51979E-002	7.46753E-005	...........
	25	13.26	6.49154E-002	6.58672E-002	7.24920E-005	...........
	26	13.77	6.50049E-002	6.57484E-002	7.26920E-005	...........
	27	14.28	6.52305E-002	6.52846E-002	7.46753E-005	...........
	28	14.79	6.54343E-002	6.50084E-002	7.62253E-005	...........
	29	15.3	6.54706E-002	6.46617E-002	7.44753E-005	...........
	30	15.81	6.53233E-002	6.46891E-002	7.50420E-005	...........
	31	16.32	6.50895E-002	6.47893E-002	7.34753E-005	...........
	32	16.83	6.48969E-002	6.52576E-002	7.33087E-005	...........
	33	17.34	6.48467E-002	6.58277E-002	7.28754E-005	...........
	34	17.85	6.49793E-002	6.58012E-002	7.57253E-005	...........
	35	18.36	6.52319E-002	6.52535E-002	7.68753E-005	...........
	36	18.87	6.54393E-002	6.47297E-002	7.55087E-005	...........
	37	19.38	6.54327E-002	6.37024E-002	7.42420E-005	...........
	38	19.89	6.51759E-002	6.50483E-002	7.26920E-005	...........
	39	20.4	6.48370E-002	6.48993E-002	7.45253E-005	...........
	40	20.91	6.46604E-002	6.54733E-002	7.59253E-005	...........
	41	21.42	6.47424E-002	6.58196E-002	6.98254E-005	...........
	42	21.93	6.50070E-002	6.57814E-002	7.73920E-005	...........
	43	22.44	6.53131E-002	6.52730E-002	7.59920E-005	...........
	44	22.95	6.55095E-002	6.48297E-002	7.58253E-005	...........
	45	23.46	6.55002E-002	6.48311E-002	7.99252E-005	...........
	46	23.97	6.53157E-002	6.46532E-002	7.97253E-005	...........
	47	24.48	6.50574E-002	6.38491E-002	7.49920E-005	...........
	48	24.99	6.48042E-002	6.54398E-002	7.66086E-005	...........
	49	25.5	6.46572E-002	6.55904E-002	6.84254E-005	...........
	50	26.01	6.47343E-002	6.55752E-002	7.44587E-005	...........
	51	26.52	6.49983E-002	6.51981E-002	7.96253E-005	...........
	52	27.03	6.52480E-002	6.49122E-002	8.01752E-005	...........
	53	27.54	6.53211E-002	6.46124E-002	7.71586E-005	...........
	54	28.05	6.52052E-002	6.46037E-002	8.02086E-005	...........
	55	28.56	6.49972E-002	6.47838E-002	8.08752E-005	...........
	56	29.07	6.48281E-002	6.53859E-002	8.07586E-005	...........
	57	29.58	6.48089E-002	6.58206E-002	8.04752E-005	...........
	58	30.09	6.49708E-002	6.54441E-002	8.23419E-005	...........
	59	30.6	6.52131E-002	6.50052E-002	8.31085E-005	...........
	60	31.11	6.53563E-002	6.45757E-002	7.87086E-005	...........
	61	31.62	6.52952E-002	6.46187E-002	8.00586E-005	...........
	62	32.13	6.50766E-002	6.43634E-002	8.34752E-005	...........
	63	32.64	6.48273E-002	6.47442E-002	8.13086E-005	...........
	64	33.15	6.46696E-002	6.55624E-002	7.72086E-005	...........
	65	33.66	6.47008E-002	6.59001E-002	8.13919E-005	...........
	66	34.17	6.49367E-002	6.54340E-002	8.06419E-005	...........
	67	34.68	6.52358E-002	6.48031E-002	7.96419E-005	...........
	68	35.19	6.53831E-002	6.45844E-002	8.23585E-005	...........
	69	35.7	6.52900E-002	6.47879E-002	8.58585E-005	...........
	70	36.21	6.50595E-002	6.45479E-002	8.60585E-005	...........
	71	36.72	6.48504E-002	6.50277E-002	7.93753E-005	...........
	72	37.23	6.47575E-002	6.52988E-002	7.80919E-005	...........
	73	37.74	6.48111E-002	6.55683E-002	7.78753E-005	...........
	74	38.25	6.50193E-002	6.72427E-002	7.96919E-005	...........
	75	38.76	6.53418E-002	6.36989E-002	8.06586E-005	...........
	76	39.27	6.55490E-002	6.37143E-002	8.46752E-005	...........
	77	39.78	6.53459E-002	6.35407E-002	8.00253E-005	...........
	78	40.29	6.47961E-002	6.48820E-002	8.28085E-005	...........
	79	40.8	6.43202E-002	6.49420E-002	7.78086E-005	...........
	80	41.31	6.42288E-002	6.55774E-002	7.32753E-005	...........
	81	41.82	6.44998E-002	6.59562E-002	7.53253E-005	...........
	82	42.33	6.49349E-002	6.55769E-002	8.05086E-005	...........
	83	42.84	6.53258E-002	6.50875E-002	8.03586E-005	...........
	84	43.35	6.55155E-002	6.49623E-002	7.72086E-005	...........
	85	43.86	6.54701E-002	6.49652E-002	7.96919E-005	...........
	86	44.37	6.52954E-002	6.50891E-002	8.07919E-005	...........
	87	44.88	6.51408E-002	6.55179E-002	7.43587E-005	...........
	88	45.39	6.51182E-002	6.63005E-002	7.81253E-005	...........
	89	45.9	6.52877E-002	6.66676E-002	7.67253E-005	...........
	90	46.41	6.56251E-002	6.62025E-002	8.17752E-005	...........
	91	46.92	6.59801E-002	6.56563E-002	8.42418E-005	...........
	92	47.43	6.61596E-002	6.55555E-002	7.99919E-005	...........
	93	47.94	6.60990E-002	6.55647E-002	7.59753E-005	...........
	94	48.45	6.59061E-002	6.56923E-002	8.02252E-005	...........
	95	48.96	6.57410E-002	6.61522E-002	7.46253E-005	...........
	96	49.47	6.57153E-002	6.67393E-002	7.62420E-005	...........
	97	49.98	6.58751E-002	6.71551E-002	7.57420E-005	...........
	98	50.49	6.61870E-002	6.67823E-002	8.12252E-005	...........
	99	51	6.65156E-002	6.62243E-002	7.46087E-005	...........
	100	51.51	6.66891E-002	6.61613E-002	8.35252E-005	...........
	101	52.02	6.66437E-002	6.61635E-002	7.94086E-005	...........
	102	52.53	6.64729E-002	6.62748E-002	8.28085E-005	...........
	103	53.04	6.63245E-002	6.67310E-002	8.31085E-005	...........
	104	53.55	6.63020E-002	6.71599E-002	7.90586E-005	...........
	105	54.06	6.64415E-002	6.74208E-002	7.66920E-005	...........
	106	54.57	6.67018E-002	6.72007E-002	7.39920E-005	...........
	107	55.08	6.69680E-002	6.68339E-002	7.86419E-005	...........
	108	55.59	6.71140E-002	6.67653E-002	8.23419E-005	...........
	109	56.1	6.70985E-002	6.67829E-002	8.09752E-005	...........
	110	56.61	6.69908E-002	6.69609E-002	7.60086E-005	...........
	111	57.12	6.69066E-002	6.75249E-002	7.04754E-005	...........
	112	57.63	6.69428E-002	6.79756E-002	7.66420E-005	...........
	113	58.14	6.71442E-002	6.84429E-002	7.80919E-005	...........
	114	58.65	6.74740E-002	6.80250E-002	8.33919E-005	...........
	115	59.16	6.77988E-002	6.73976E-002	7.83919E-005	...........
	116	59.67	6.79533E-002	6.73604E-002	8.14419E-005	...........
	117	60.18	6.78813E-002	6.73467E-002	8.45085E-005	...........
	118	60.69	6.76871E-002	6.75295E-002	8.36252E-005	...........
	119	61.2	6.75296E-002	6.80131E-002	8.02752E-005	...........
	120	61.71	6.75201E-002	6.86082E-002	7.78086E-005	...........
	121	62.22	6.76988E-002	6.88894E-002	8.09752E-005	...........
	122	62.73	6.80203E-002	6.86638E-002	8.47918E-005	...........
	123	63.24	6.83468E-002	6.80607E-002	8.44752E-005	...........
	124	63.75	6.85169E-002	6.79543E-002	8.91418E-005	...........
	125	64.26	6.84705E-002	6.79659E-002	8.34752E-005	...........
	126	64.77	6.82970E-002	6.81675E-002	8.31919E-005	...........
	127	65.28	6.81504E-002	6.86859E-002	7.96086E-005	...........
	128	65.79	6.81513E-002	6.93480E-002	8.11919E-005	...........
	129	66.3	6.83483E-002	6.95745E-002	7.70253E-005	...........
	130	66.81	6.86907E-002	6.92360E-002	8.04919E-005	...........
	131	67.32	6.90226E-002	6.86322E-002	8.67418E-005	...........
	132	67.83	6.91726E-002	6.85185E-002	8.60418E-005	...........
	133	68.34	6.90916E-002	6.85332E-002	8.62252E-005	...........
	134	68.85	6.88871E-002	6.86989E-002	8.72918E-005	...........
	135	69.36	6.87187E-002	6.91804E-002	8.63918E-005	...........
	136	69.87	6.86978E-002	6.96575E-002	8.71585E-005	...........
	137	70.38	6.88611E-002	7.00854E-002	7.97419E-005	...........
	138	70.89	6.91656E-002	6.97707E-002	8.17419E-005	...........
	139	71.4	6.94827E-002	6.92561E-002	8.15252E-005	...........
	140	71.91	6.96548E-002	6.91061E-002	8.35419E-005	...........
	141	72.42	6.96167E-002	6.90873E-002	8.29919E-005	...........
	142	72.93	6.94467E-002	6.92193E-002	8.44085E-005	...........
	143	73.44	6.92846E-002	6.95040E-002	8.22252E-005	...........
	144	73.95	6.92363E-002	7.01248E-002	8.23419E-005	...........
	145	74.46	6.93557E-002	7.06779E-002	7.62586E-005	...........
	146	74.97	6.96380E-002	7.04535E-002	7.85253E-005	...........
	147	75.48	6.99784E-002	6.98101E-002	8.59252E-005	...........
	148	75.99	7.01978E-002	6.96173E-002	8.58418E-005	...........
	149	76.5	7.01895E-002	6.96347E-002	8.34085E-005	...........
	150	77.01	7.00168E-002	6.96602E-002	8.54752E-005	...........
	151	77.52	6.98298E-002	6.99369E-002	8.47585E-005	...........
	152	78.03	6.97451E-002	7.04557E-002	8.15252E-005	...........
	153	78.54	6.98198E-002	7.10019E-002	8.23585E-005	...........
	154	79.05	7.00588E-002	7.10527E-002	8.06252E-005	...........
	155	79.56	7.03859E-002	7.05542E-002	8.29752E-005	...........
	156	80.07	7.06459E-002	7.01158E-002	8.41752E-005	...........
	157	80.58	7.07069E-002	7.01305E-002	8.22752E-005	...........
	158	81.09	7.05763E-002	7.01316E-002	7.91586E-005	...........
	159	81.6	7.03822E-002	7.03377E-002	7.92586E-005	...........
	160	82.11	7.02613E-002	7.09376E-002	8.20419E-005	...........
	161	82.62	7.03002E-002	7.15051E-002	7.55420E-005	...........
	162	83.13	7.05245E-002	7.16442E-002	8.21419E-005	...........
	163	83.64	7.08634E-002	7.10416E-002	8.58085E-005	...........
	164	84.15	7.11477E-002	7.06488E-002	8.55585E-005	...........
	165	84.66	7.12253E-002	7.05849E-002	8.75418E-005	...........
	166	85.17	7.10949E-002	7.06295E-002	8.76585E-005	...........
	167	85.68	7.08899E-002	7.08292E-002	9.21751E-005	...........
	168	86.19	7.07560E-002	7.13417E-002	8.70085E-005	...........
	169	86.7	7.07803E-002	7.18974E-002	8.61918E-005	...........
	170	87.21	7.09812E-002	7.19285E-002	8.58918E-005	...........
	171	87.72	7.12890E-002	7.16306E-002	8.38418E-005	...........
	172	88.23	7.15560E-002	7.11527E-002	8.33419E-005	...........
	173	88.74	7.16498E-002	7.11114E-002	8.80751E-005	...........
	174	89.25	7.15574E-002	7.11135E-002	8.63751E-005	...........
	175	89.76	7.13835E-002	7.13160E-002	8.38085E-005	...........
	176	90.27	7.12609E-002	7.18493E-002	8.42918E-005	...........
	177	90.78	7.12808E-002	7.22439E-002	8.09919E-005	...........
	178	91.29	7.14674E-002	7.24976E-002	8.11586E-005	...........
	179	91.8	7.17587E-002	7.19944E-002	8.36752E-005	...........
	180	92.31	7.20148E-002	7.16550E-002	8.37585E-005	...........
	181	92.82	7.21042E-002	7.15736E-002	8.53918E-005	...........
	182	93.33	7.20121E-002	7.15587E-002	8.34085E-005	...........
	183	93.84	7.18389E-002	7.16730E-002	8.12419E-005	...........
	184	94.35	7.17044E-002	7.20507E-002	8.30752E-005	...........
	185	94.86	7.16879E-002	7.25619E-002	8.18585E-005	...........
	186	95.37	7.18241E-002	7.28693E-002	8.21919E-005	...........
	187	95.88	7.20864E-002	7.26635E-002	8.63918E-005	...........
	188	96.39	7.23681E-002	7.22411E-002	8.77751E-005	...........
	189	96.9	7.25307E-002	7.20496E-002	8.61251E-005	...........
	190	97.41	7.25102E-002	7.19956E-002	8.90584E-005	...........
	191	97.92	7.23623E-002	7.20455E-002	8.71251E-005	...........
	192	98.43	7.22007E-002	7.22431E-002	8.90918E-005	...........
	193	98.94	7.21216E-002	7.28259E-002	8.80418E-005	...........
	194	99.45	7.21805E-002	7.30084E-002	8.45752E-005	...........
	195	99.96	7.23781E-002	7.32317E-002	8.08586E-005	...........
	196	100.47	7.26434E-002	7.28289E-002	8.35585E-005	...........
	197	100.98	7.28569E-002	7.25277E-002	8.17919E-005	...........
	198	101.49	7.29225E-002	7.24834E-002	8.29419E-005	...........
	199	102	7.28387E-002	7.24504E-002	8.34252E-005	...........
	200	102.51	7.26922E-002	7.25795E-002	8.26585E-005	...........
	201	103.02	7.25840E-002	7.29907E-002	8.27085E-005	...........
	202	103.53	7.25872E-002	7.35168E-002	7.95419E-005	...........
	203	104.04	7.27408E-002	7.38566E-002	8.39418E-005	...........
	204	104.55	7.30244E-002	7.37776E-002	7.86253E-005	...........
	205	105.06	7.33344E-002	7.31558E-002	8.19585E-005	...........
	206	105.57	7.35214E-002	7.29520E-002	8.75418E-005	...........
	207	106.08	7.35032E-002	7.29968E-002	8.65251E-005	...........
	208	106.59	7.33375E-002	7.29146E-002	8.90084E-005	...........
	209	107.1	7.31544E-002	7.31679E-002	8.64085E-005	...........
	210	107.61	7.30520E-002	7.34594E-002	8.39752E-005	...........
	211	108.12	7.30763E-002	7.39780E-002	7.97919E-005	...........
	212	108.63	7.32420E-002	7.43820E-002	8.30919E-005	...........
	213	109.14	7.35230E-002	7.41760E-002	8.19752E-005	...........
	214	109.65	7.38293E-002	7.40215E-002	8.15419E-005	...........
	215	110.16	7.40365E-002	7.35738E-002	8.37585E-005	...........
	216	110.67	7.40744E-002	7.38216E-002	8.29919E-005	...........
	217	111.18	7.39927E-002	7.42629E-002	8.19919E-005	...........
	218	111.69	7.39326E-002	7.46374E-002	7.90253E-005	...........
	219	112.2	7.40022E-002	7.44368E-002	8.04919E-005	...........
	220	112.71	7.41644E-002	7.38685E-002	8.01586E-005	...........
	221	113.22	7.42709E-002	7.37067E-002	7.93086E-005	...........
	222	113.73	7.42196E-002	7.36854E-002	8.29419E-005	...........
	223	114.24	7.40482E-002	7.36677E-002	8.06586E-005	...........
	224	114.75	7.38682E-002	7.37978E-002	7.88753E-005	...........
	225	115.26	7.37644E-002	7.41714E-002	8.30252E-005	...........
	226	115.77	7.37807E-002	7.46963E-002	8.17586E-005	...........
	227	116.28	7.39409E-002	7.51412E-002	8.38585E-005	...........
	228	116.79	7.42284E-002	7.49541E-002	8.10586E-005	...........
	229	117.3	7.45460E-002	7.44437E-002	8.01252E-005	...........
	230	117.81	7.47427E-002	7.41469E-002	8.01086E-005	...........
	231	118.32	7.47302E-002	7.41378E-002	8.29585E-005	...........
	232	118.83	7.45588E-002	7.41128E-002	8.36585E-005	...........
	233	119.34	7.43569E-002	7.42045E-002	8.53418E-005	...........
	234	119.85	7.42249E-002	7.44878E-002	8.10919E-005	...........
	235	120.36	7.42067E-002	7.48803E-002	8.20419E-005	...........
	236	120.87	7.43209E-002	7.55350E-002	8.07086E-005	...........
	237	121.38	7.45679E-002	7.55141E-002	8.03086E-005	...........
	238	121.89	7.48901E-002	7.51869E-002	8.05752E-005	...........
	239	122.4	7.51554E-002	7.47485E-002	8.93084E-005	...........
	240	122.91	7.52392E-002	7.45818E-002	8.44918E-005	...........
	241	123.42	7.51231E-002	7.42714E-002	8.26752E-005	...........
	242	123.93	7.49018E-002	7.50320E-002	8.84251E-005	...........
	243	124.44	7.47339E-002	7.55371E-002	8.51585E-005	...........
	244	124.95	7.47483E-002	7.51996E-002	8.44252E-005	...........
	245	125.46	7.49386E-002	7.60302E-002	8.55252E-005	...........
	246	125.97	7.52249E-002	7.68539E-002	8.72918E-005	...........
	247	126.48	7.55912E-002	7.69057E-002	8.56251E-005	...........
	248	126.99	7.59901E-002	7.48269E-002	8.44752E-005	...........
	249	127.5	7.62039E-002	7.50932E-002	8.58085E-005	...........
	250	128.01	7.60619E-002	7.52638E-002	8.46418E-005	...........
	251	128.52	7.57020E-002	7.53090E-002	9.05084E-005	...........
	252	129.03	7.53995E-002	7.53587E-002	8.42918E-005	...........
	253	129.54	7.52776E-002	7.57010E-002	7.89586E-005	...........
	254	130.05	7.53182E-002	7.62431E-002	8.27085E-005	...........
	255	130.56	7.54978E-002	7.68696E-002	7.98086E-005	...........
	256	131.07	7.58096E-002	7.69741E-002	7.44087E-005	...........
	257	131.58	7.61939E-002	7.65684E-002	8.00919E-005	...........
	258	132.09	7.65052E-002	7.58596E-002	8.17752E-005	...........
	259	132.6	7.65914E-002	7.56336E-002	7.98919E-005	...........
	260	133.11	7.64245E-002	7.56241E-002	8.02919E-005	...........
	261	133.62	7.61272E-002	7.56220E-002	8.56418E-005	...........
	262	134.13	7.58607E-002	7.57489E-002	8.19085E-005	...........
	263	134.64	7.57171E-002	7.61236E-002	8.01586E-005	...........
	264	135.15	7.57253E-002	7.67217E-002	8.09086E-005	...........
	265	135.66	7.58953E-002	7.71824E-002	7.76419E-005	...........
	266	136.17	7.62075E-002	7.71663E-002	8.34085E-005	...........
	267	136.68	7.65653E-002	7.65096E-002	7.95086E-005	...........
	268	137.19	7.68033E-002	7.60252E-002	8.18419E-005	...........
	269	137.7	7.67991E-002	7.59717E-002	8.11252E-005	...........
	270	138.21	7.65848E-002	7.59552E-002	7.69920E-005	...........
	271	138.72	7.63103E-002	7.60088E-002	7.84753E-005	...........
	272	139.23	7.61113E-002	7.62870E-002	7.73419E-005	...........
	273	139.74	7.60487E-002	7.67123E-002	8.13419E-005	...........
	274	140.25	7.61399E-002	7.73261E-002	7.31254E-005	...........
	275	140.76	7.63858E-002	7.77140E-002	7.44420E-005	...........
	276	141.27	7.67449E-002	7.74223E-002	8.04919E-005	...........
	277	141.78	7.70959E-002	7.68320E-002	8.33752E-005	...........
	278	142.29	7.72763E-002	7.64182E-002	8.40752E-005	...........
	279	142.8	7.72051E-002	7.63592E-002	8.28752E-005	...........
	280	143.31	7.69541E-002	7.63651E-002	8.00586E-005	...........
	281	143.82	7.66783E-002	7.64672E-002	8.15586E-005	...........
	282	144.33	7.64991E-002	7.67897E-002	8.32919E-005	...........
	283	144.84	7.64686E-002	7.73254E-002	7.77419E-005	...........
	284	145.35	7.66026E-002	7.78984E-002	8.12586E-005	...........
	285	145.86	7.68922E-002	7.80873E-002	8.30085E-005	...........
	286	146.37	7.72685E-002	7.77186E-002	7.95586E-005	...........
	287	146.88	7.75872E-002	7.70493E-002	8.02919E-005	...........
	288	147.39	7.76962E-002	7.67584E-002	7.91753E-005	...........
	289	147.9	7.75546E-002	7.67515E-002	8.23419E-005	...........
	290	148.41	7.72709E-002	7.67605E-002	8.03252E-005	...........
	291	148.92	7.70039E-002	7.68479E-002	8.35419E-005	...........
	292	149.43	7.68533E-002	7.72764E-002	7.99753E-005	...........
	293	149.94	7.68584E-002	7.80133E-002	7.50587E-005	...........
	294	150.45	7.70421E-002	7.84400E-002	7.73920E-005	...........
	295	150.96	7.73896E-002	7.84966E-002	8.12752E-005	...........
	296	151.47	7.77948E-002	7.79137E-002	7.96753E-005	...........
	297	151.98	7.80796E-002	7.72645E-002	7.88419E-005	...........
	298	152.49	7.81055E-002	7.71312E-002	8.04919E-005	...........
	299	153	7.78853E-002	7.70724E-002	7.91086E-005	...........
	300	153.51	7.75685E-002	7.71553E-002	8.08252E-005	...........
	301	154.02	7.73134E-002	7.73398E-002	8.49918E-005	...........
	302	154.53	7.72020E-002	7.78021E-002	7.94253E-005	...........
	303	155.04	7.72590E-002	7.84703E-002	8.07252E-005	...........
	304	155.55	7.74867E-002	7.87595E-002	8.26752E-005	...........
	305	156.06	7.78429E-002	7.86781E-002	8.48418E-005	...........
	306	156.57	7.82042E-002	7.79436E-002	8.08752E-005	...........
	307	157.08	7.84025E-002	7.75051E-002	8.21752E-005	...........
	308	157.59	7.83419E-002	7.74732E-002	8.36085E-005	...........
	309	158.1	7.80861E-002	7.74769E-002	8.73918E-005	...........
	310	158.61	7.77987E-002	7.75759E-002	8.39918E-005	...........
	311	159.12	7.76128E-002	7.79617E-002	8.65418E-005	...........
	312	159.63	7.75826E-002	7.83527E-002	8.24085E-005	...........
	313	160.14	7.77148E-002	7.88821E-002	8.44085E-005	...........
	314	160.65	7.79853E-002	7.90531E-002	8.27419E-005	...........
	315	161.16	7.83207E-002	7.85031E-002	8.52752E-005	...........
	316	161.67	7.85828E-002	7.79358E-002	8.59585E-005	...........
	317	162.18	7.86354E-002	7.78062E-002	8.86751E-005	...........
	318	162.69	7.84672E-002	7.78269E-002	9.03584E-005	...........
	319	163.2	7.82049E-002	7.78685E-002	8.77251E-005	...........
	320	163.71	7.79947E-002	7.80880E-002	8.96084E-005	...........
	321	164.22	7.79136E-002	7.85318E-002	8.87251E-005	...........
	322	164.73	7.79846E-002	7.90918E-002	8.40085E-005	...........
	323	165.24	7.82133E-002	7.96752E-002	8.49918E-005	...........
	324	165.75	7.85699E-002	7.93170E-002	8.00752E-005	...........
	325	166.26	7.89367E-002	7.85815E-002	8.82418E-005	...........
	326	166.77	7.91316E-002	7.82366E-002	8.85751E-005	...........
	327	167.28	7.90542E-002	7.81668E-002	8.44585E-005	...........
	328	167.79	7.87839E-002	7.81689E-002	8.92751E-005	...........
	329	168.3	7.84915E-002	7.82276E-002	8.32919E-005	...........
	330	168.81	7.82994E-002	7.84916E-002	8.18085E-005	...........
	331	169.32	7.82526E-002	7.91133E-002	7.83086E-005	...........
	332	169.83	7.83677E-002	7.95806E-002	8.52418E-005	...........
	333	170.34	7.86379E-002	7.96678E-002	9.10084E-005	...........
	334	170.85	7.89858E-002	7.92639E-002	8.80918E-005	...........
	335	171.36	7.92616E-002	7.87044E-002	8.85084E-005	...........
	336	171.87	7.93316E-002	7.85219E-002	8.89084E-005	...........
	337	172.38	7.91831E-002	7.85094E-002	8.72585E-005	...........
	338	172.89	7.89293E-002	7.85202E-002	8.95918E-005	...........
	339	173.4	7.87078E-002	7.86715E-002	8.82584E-005	...........
	340	173.91	7.85971E-002	7.90465E-002	8.49418E-005	...........
	341	174.42	7.86279E-002	7.97408E-002	8.39752E-005	...........
	342	174.93	7.88207E-002	8.02371E-002	8.10919E-005	...........
	343	175.44	7.91591E-002	7.99491E-002	8.68085E-005	...........
	344	175.95	7.95276E-002	7.93089E-002	8.92751E-005	...........
	345	176.46	7.97410E-002	7.89145E-002	8.65251E-005	...........
	346	176.97	7.96932E-002	7.88530E-002	8.60918E-005	...........
	347	177.48	7.94505E-002	7.88591E-002	8.20252E-005	...........
	348	177.99	7.91735E-002	7.88767E-002	8.28085E-005	...........
	349	178.5	7.89825E-002	7.90978E-002	8.28752E-005	...........
	350	179.01	7.89191E-002	7.94696E-002	8.24085E-005	...........
	351	179.52	7.89898E-002	7.99911E-002	7.76253E-005	...........
	352	180.03	7.91891E-002	8.00829E-002	8.05419E-005	...........
	353	180.54	7.94708E-002	7.99686E-002	8.06419E-005	...........
	354	181.05	7.97277E-002	7.93687E-002	8.44252E-005	...........
	355	181.56	7.98386E-002	7.92006E-002	7.97086E-005	...........
	356	182.07	7.97595E-002	7.91774E-002	8.28585E-005	...........
	357	182.58	7.95630E-002	7.91769E-002	8.14752E-005	...........
	358	183.09	7.93698E-002	7.93028E-002	8.95251E-005	...........
	359	183.6	7.92556E-002	7.92897E-002	8.63418E-005	...........
	360	184.11	7.92254E-002	7.92823E-002	8.35919E-005	...........
	361	184.62	7.92437E-002	7.93904E-002	8.28419E-005	...........
	362	185.13	7.92849E-002	7.97457E-002	8.15586E-005	...........
	363	185.64	7.93651E-002	8.01234E-002	8.63751E-005	...........
	364	186.15	7.95239E-002	8.05624E-002	8.26085E-005	...........
	365	186.66	7.97733E-002	8.05365E-002	8.49752E-005	...........
	366	187.17	8.00541E-002	8.00067E-002	8.48418E-005	...........
	367	187.68	8.02435E-002	7.96805E-002	8.39918E-005	...........
	368	188.19	8.02461E-002	7.96219E-002	8.08752E-005	...........
	369	188.7	8.00865E-002	7.95979E-002	8.41085E-005	...........
	370	189.21	7.98790E-002	7.96317E-002	8.37752E-005	...........
	371	189.72	7.97253E-002	7.98480E-002	8.25085E-005	...........
	372	190.23	7.96753E-002	8.02948E-002	8.14419E-005	...........
	373	190.74	7.97527E-002	8.07583E-002	8.48752E-005	...........
	374	191.25	7.99615E-002	8.08983E-002	7.94086E-005	...........
	375	191.76	8.02525E-002	8.06882E-002	8.12085E-005	...........
	376	192.27	8.05110E-002	8.01205E-002	8.82751E-005	...........
	377	192.78	8.06130E-002	7.99392E-002	8.08586E-005	...........
	378	193.29	8.05201E-002	7.99181E-002	8.21419E-005	...........
	379	193.8	8.03125E-002	7.99315E-002	8.11752E-005	...........
	380	194.31	8.01141E-002	8.00423E-002	8.10752E-005	...........
	381	194.82	8.00061E-002	8.03939E-002	8.12419E-005	...........
	382	195.33	8.00210E-002	8.08489E-002	7.65420E-005	...........
	383	195.84	8.01702E-002	8.12445E-002	8.24919E-005	...........
	384	196.35	8.04364E-002	8.13241E-002	8.37419E-005	...........
	385	196.86	8.07423E-002	8.06968E-002	8.37252E-005	...........
	386	197.37	8.09549E-002	8.04607E-002	8.45418E-005	...........
	387	197.88	8.09710E-002	8.01958E-002	8.30252E-005	...........
	388	198.39	8.08117E-002	8.04901E-002	8.43252E-005	...........
	389	198.9	8.06153E-002	8.10756E-002	8.11086E-005	...........
	390	199.41	8.05182E-002	8.00783E-002	7.82753E-005	...........
	391	199.92	8.05290E-002	8.10501E-002	7.57753E-005	...........
	392	200.43	8.05977E-002	8.17560E-002	7.84919E-005	...........
	393	200.94	8.07469E-002	8.10657E-002	7.93253E-005	...........
	394	201.45	8.09621E-002	8.07912E-002	7.63586E-005	...........
	395	201.96	8.10979E-002	8.03908E-002	7.78419E-005	...........
	396	202.47	8.10432E-002	8.04111E-002	7.97919E-005	...........
	397	202.98	8.08445E-002	8.03540E-002	8.00586E-005	...........
	398	203.49	8.06200E-002	8.01011E-002	8.04419E-005	...........
	399	204	8.04410E-002	8.02915E-002	7.91419E-005	...........
	400	204.51	8.03290E-002	8.06607E-002	8.57918E-005	...........
	401	205.02	8.03164E-002	8.11814E-002	7.72086E-005	...........
	402	205.53	8.04454E-002	8.14792E-002	8.19419E-005	...........
	403	206.04	8.07062E-002	8.15018E-002	8.01752E-005	...........
	404	206.55	8.10079E-002	8.10841E-002	8.47252E-005	...........
	405	207.06	8.12161E-002	8.06883E-002	7.69086E-005	...........
	406	207.57	8.12394E-002	8.06540E-002	8.21585E-005	...........
	407	208.08	8.10992E-002	8.06455E-002	8.31919E-005	...........
	408	208.59	8.09051E-002	8.06860E-002	8.14586E-005	...........
	409	209.1	8.07605E-002	8.08852E-002	7.92086E-005	...........
	410	209.61	8.07157E-002	8.12836E-002	7.53920E-005	...........
	411	210.12	8.07875E-002	8.15906E-002	7.37920E-005	...........
	412	210.63	8.09719E-002	8.18943E-002	8.14586E-005	...........
	413	211.14	8.12301E-002	8.17479E-002	7.85753E-005	...........
	414	211.65	8.14740E-002	8.11313E-002	7.61253E-005	...........
	415	212.16	8.15899E-002	8.09984E-002	7.60253E-005	...........
	416	212.67	8.15249E-002	8.10306E-002	8.45752E-005	...........
	417	213.18	8.13448E-002	8.09423E-002	8.02419E-005	...........
	418	213.69	8.11656E-002	8.10917E-002	8.20585E-005	...........
	419	214.2	8.10603E-002	8.12777E-002	7.72753E-005	...........
	420	214.71	8.10573E-002	8.18432E-002	8.26085E-005	...........
	421	215.22	8.11755E-002	8.21846E-002	7.96919E-005	...........
	422	215.73	8.14113E-002	8.21693E-002	8.59252E-005	...........
	423	216.24	8.16940E-002	8.17547E-002	8.73085E-005	...........
	424	216.75	8.18950E-002	8.14188E-002	8.77751E-005	...........
	425	217.26	8.19191E-002	8.13038E-002	8.80918E-005	...........
	426	217.77	8.17819E-002	8.12867E-002	8.75751E-005	...........
	427	218.28	8.15836E-002	8.12732E-002	8.39752E-005	...........
	428	218.79	8.14211E-002	8.14096E-002	8.55585E-005	...........
	429	219.3	8.13458E-002	8.18535E-002	8.57918E-005	...........
	430	219.81	8.13867E-002	8.22888E-002	8.69251E-005	...........
	431	220.32	8.15592E-002	8.25440E-002	8.38585E-005	...........
	432	220.83	8.18311E-002	8.23639E-002	8.17086E-005	...........
	433	221.34	8.20985E-002	8.18356E-002	8.70751E-005	...........
	434	221.85	8.22327E-002	8.16487E-002	8.32085E-005	...........
	435	222.36	8.21779E-002	8.16074E-002	8.55085E-005	...........
	436	222.87	8.19974E-002	8.15814E-002	8.42085E-005	...........
	437	223.38	8.18065E-002	8.16729E-002	8.42585E-005	...........
	438	223.89	8.16883E-002	8.20296E-002	8.54252E-005	...........
	439	224.4	8.16833E-002	8.24010E-002	8.08252E-005	...........
	440	224.91	8.18066E-002	8.27238E-002	8.16086E-005	...........
	441	225.42	8.20383E-002	8.28196E-002	8.45252E-005	...........
	442	225.93	8.23074E-002	8.24117E-002	8.46752E-005	...........
	443	226.44	8.25022E-002	8.19796E-002	8.18585E-005	...........
	444	226.95	8.25297E-002	8.19245E-002	8.33085E-005	...........
	445	227.46	8.23937E-002	8.18716E-002	8.45585E-005	...........
	446	227.97	8.21912E-002	8.18808E-002	8.56251E-005	...........
	447	228.48	8.20238E-002	8.20091E-002	8.55918E-005	...........
	448	228.99	8.19450E-002	8.23997E-002	8.35919E-005	...........
	449	229.5	8.19835E-002	8.30118E-002	8.38252E-005	...........
	450	230.01	8.21636E-002	8.33491E-002	8.45585E-005	...........
	451	230.52	8.24643E-002	8.29912E-002	8.45585E-005	...........
	452	231.03	8.27715E-002	8.25822E-002	8.53418E-005	...........
	453	231.54	8.29301E-002	8.21873E-002	8.63585E-005	...........
	454	232.05	8.28698E-002	8.21868E-002	8.62751E-005	...........
	455	232.56	8.26585E-002	8.21701E-002	8.64418E-005	...........
	456	233.07	8.24282E-002	8.21842E-002	9.01418E-005	...........
	457	233.58	8.22724E-002	8.23631E-002	8.99918E-005	...........
	458	234.09	8.22227E-002	8.27649E-002	8.52585E-005	...........
	459	234.6	8.22890E-002	8.31799E-002	8.80418E-005	...........
	460	235.11	8.24771E-002	8.35748E-002	8.95751E-005	...........
	461	235.62	8.27617E-002	8.34207E-002	8.89751E-005	...........
	462	236.13	8.30521E-002	8.28027E-002	8.69251E-005	...........
	463	236.64	8.32112E-002	8.24716E-002	8.53252E-005	...........
	464	237.15	8.31562E-002	8.24264E-002	8.73751E-005	...........
	465	237.66	8.29398E-002	8.23985E-002	8.52252E-005	...........
	466	238.17	8.26954E-002	8.24097E-002	8.45752E-005	...........
	467	238.68	8.25225E-002	8.25502E-002	8.61918E-005	...........
	468	239.19	8.24481E-002	8.25505E-002	9.04418E-005	...........
	469	239.7	8.24492E-002	8.25098E-002	8.69085E-005	...........
	470	240.21	8.24845E-002	8.26426E-002	8.88918E-005	...........
	471	240.72	8.25267E-002	8.27588E-002	8.16586E-005	...........
	472	241.23	8.25775E-002	8.27894E-002	8.41752E-005	...........
	473	241.74	8.26503E-002	8.32358E-002	8.62085E-005	...........
	474	242.25	8.27529E-002	8.28870E-002	8.61752E-005	...........
	475	242.76	8.28644E-002	8.28607E-002	9.10917E-005	...........
	476	243.27	8.29340E-002	8.28159E-002	8.94251E-005	...........
	477	243.78	8.29356E-002	8.27955E-002	9.16917E-005	...........
	478	244.29	8.28932E-002	8.27342E-002	9.34584E-005	...........
	479	244.8	8.28413E-002	8.27798E-002	8.80085E-005	...........
	480	245.31	8.28041E-002	8.29998E-002	8.80251E-005	...........
	481	245.82	8.28054E-002	8.31199E-002	8.44752E-005	...........
	482	246.33	8.28665E-002	8.34766E-002	8.37252E-005	...........
	483	246.84	8.29949E-002	8.36404E-002	8.77585E-005	...........
	484	247.35	8.31688E-002	8.32674E-002	9.13917E-005	...........
	485	247.86	8.33212E-002	8.31794E-002	9.18917E-005	...........
	486	248.37	8.33798E-002	8.31393E-002	8.90584E-005	...........
	487	248.88	8.33382E-002	8.30639E-002	9.14917E-005	...........
	488	249.39	8.32494E-002	8.30713E-002	8.90584E-005	...........
	489	249.9	8.31678E-002	8.32227E-002	9.19251E-005	...........
	490	250.41	8.31304E-002	8.34711E-002	9.31750E-005	...........
	491	250.92	8.31631E-002	8.36389E-002	8.97251E-005	...........
	492	251.43	8.32663E-002	8.36061E-002	9.10084E-005	...........
	493	251.94	8.34011E-002	8.35709E-002	8.83418E-005	...........
	494	252.45	8.35094E-002	8.34279E-002	8.43085E-005	...........
	495	252.96	8.35528E-002	8.33725E-002	8.98251E-005	...........
	496	253.47	8.35302E-002	8.33088E-002	8.95751E-005	...........
	497	253.98	8.34670E-002	8.32387E-002	8.51752E-005	...........
	498	254.49	8.33950E-002	8.33917E-002	8.78251E-005	...........
	499	255	8.33472E-002	8.36000E-002	8.56251E-005	...........
	500	255.51	8.33561E-002	8.37450E-002	8.89251E-005	...........
	501	256.02	8.34351E-002	8.39066E-002	9.17917E-005	...........
	502	256.53	8.35604E-002	8.37005E-002	9.13084E-005	...........
	503	257.04	8.36749E-002	8.35036E-002	8.94084E-005	...........
	504	257.55	8.37233E-002	8.36840E-002	8.49252E-005	...........
	505	258.06	8.37035E-002	8.35929E-002	8.94751E-005	...........
	506	258.57	8.36600E-002	8.35702E-002	8.40918E-005	...........
	507	259.08	8.36279E-002	8.37177E-002	8.44918E-005	...........
	508	259.59	8.36224E-002	8.39151E-002	8.36252E-005	...........
	509	260.1	8.36582E-002	8.39235E-002	9.08084E-005	...........
	510	260.61	8.37320E-002	8.38319E-002	8.65418E-005	...........
	511	261.12	8.38064E-002	8.37290E-002	8.61251E-005	...........
	512	261.63	8.38389E-002	8.37058E-002	8.99084E-005	...........
	513	262.14	8.38195E-002	8.36318E-002	8.81418E-005	...........
	514	262.65	8.37684E-002	8.36115E-002	8.53752E-005	...........
	515	263.16	8.37160E-002	8.39034E-002	8.53752E-005	...........
	516	263.67	8.37005E-002	8.40988E-002	8.64585E-005	...........
	517	264.18	8.37538E-002	8.41428E-002	8.82751E-005	...........
	518	264.69	8.38613E-002	8.38455E-002	8.68918E-005	...........
	519	265.2	8.39602E-002	8.40640E-002	8.93751E-005	...........
	520	265.71	8.40136E-002	8.43973E-002	8.15419E-005	...........
	521	266.22	8.40611E-002	8.44932E-002	8.61918E-005	...........
	522	266.73	8.41456E-002	8.40242E-002	8.74085E-005	...........
	523	267.24	8.42269E-002	8.39947E-002	8.52752E-005	...........
	524	267.75	8.42336E-002	8.40039E-002	8.51918E-005	...........
	525	268.26	8.41639E-002	8.38985E-002	8.80751E-005	...........
	526	268.77	8.40710E-002	8.39206E-002	9.17084E-005	...........
	527	269.28	8.39966E-002	8.40048E-002	8.81418E-005	...........
	528	269.79	8.39618E-002	8.42462E-002	8.35085E-005	...........
	529	270.3	8.39803E-002	8.41766E-002	8.69751E-005	...........
	530	270.81	8.40668E-002	8.54060E-002	8.34585E-005	...........
	531	271.32	8.42377E-002	8.42765E-002	8.63085E-005	...........
	532	271.83	8.44545E-002	8.48827E-002	8.73085E-005	...........
	533	272.34	8.45981E-002	8.34341E-002	8.39418E-005	...........
	534	272.85	8.45643E-002	8.40798E-002	8.97084E-005	...........
	535	273.36	8.43769E-002	8.42833E-002	8.40252E-005	...........
	536	273.87	8.41811E-002	8.40019E-002	8.11752E-005	...........
	537	274.38	8.40861E-002	8.40800E-002	8.19252E-005	...........
	538	274.89	8.40774E-002	8.44814E-002	8.64751E-005	...........
	539	275.4	8.41204E-002	8.44707E-002	8.23085E-005	...........
	540	275.91	8.42187E-002	8.48959E-002	8.47918E-005	...........
	541	276.42	8.43681E-002	8.47031E-002	8.22752E-005	...........
	542	276.93	8.45244E-002	8.43721E-002	8.70251E-005	...........
	543	277.44	8.46143E-002	8.43626E-002	8.67918E-005	...........
	544	277.95	8.45985E-002	8.43618E-002	8.69751E-005	...........
	545	278.46	8.45146E-002	8.43341E-002	8.34585E-005	...........
	546	278.97	8.44282E-002	8.43374E-002	8.42418E-005	...........
	547	279.48	8.43728E-002	8.43738E-002	8.48585E-005	...........
	548	279.99	8.43520E-002	8.45015E-002	8.40085E-005	...........
	549	280.5	8.43663E-002	8.46335E-002	8.46252E-005	...........
	550	281.01	8.44200E-002	8.48222E-002	8.50918E-005	...........
	551	281.52	8.45105E-002	8.47280E-002	8.34252E-005	...........
	552	282.03	8.46139E-002	8.47568E-002	8.19585E-005	...........
	553	282.54	8.46941E-002	8.46827E-002	8.16586E-005	...........
	554	283.05	8.47306E-002	8.46558E-002	8.58752E-005	...........
	555	283.56	8.47280E-002	8.46594E-002	8.37252E-005	...........
	556	284.07	8.47052E-002	8.46675E-002	8.30752E-005	...........
	557	284.58	8.46850E-002	8.48257E-002	8.60585E-005	...........
	558	285.09	8.46793E-002	8.44018E-002	8.36752E-005	...........
	559	285.6	8.46756E-002	8.47995E-002	7.93919E-005	...........
	560	286.11	8.46719E-002	8.51063E-002	8.23252E-005	...........
	561	286.62	8.47091E-002	8.51177E-002	8.34419E-005	...........
	562	287.13	8.48107E-002	8.49587E-002	8.33085E-005	...........
	563	287.64	8.49268E-002	8.49371E-002	8.58085E-005	...........
	564	288.15	8.49917E-002	8.49038E-002	8.63585E-005	...........
	565	288.66	8.49914E-002	8.47952E-002	8.19919E-005	...........
	566	289.17	8.49512E-002	8.48486E-002	8.60918E-005	...........
	567	289.68	8.49092E-002	8.52713E-002	8.21419E-005	...........
	568	290.19	8.49098E-002	8.50894E-002	7.67253E-005	...........
	569	290.7	8.49751E-002	8.54869E-002	7.70253E-005	...........
	570	291.21	8.50874E-002	8.54149E-002	8.04919E-005	...........
	571	291.72	8.51911E-002	8.42174E-002	7.84086E-005	...........
	572	292.23	8.52063E-002	8.55914E-002	7.84419E-005	...........
	573	292.74	8.51400E-002	8.53306E-002	7.82919E-005	...........
	574	293.25	8.51092E-002	8.52081E-002	7.99586E-005	...........
	575	293.76	8.51582E-002	8.51565E-002	7.71253E-005	...........
	576	294.27	8.52153E-002	8.52799E-002	8.08919E-005	...........
	577	294.78	8.52389E-002	8.54013E-002	8.16752E-005	...........
	578	295.29	8.52621E-002	8.57143E-002	8.08419E-005	...........
	579	295.8	8.53335E-002	8.59095E-002	8.06919E-005	...........
	580	296.31	8.54680E-002	8.58649E-002	8.34585E-005	...........
	581	296.82	8.56264E-002	8.56534E-002	8.14919E-005	...........
	582	297.33	8.57099E-002	8.41149E-002	8.27085E-005	...........
	583	297.84	8.56110E-002	8.53922E-002	8.22252E-005	...........
	584	298.35	8.53684E-002	8.54155E-002	8.94084E-005	...........
	585	298.86	8.51824E-002	8.54545E-002	8.59918E-005	...........
	586	299.37	8.51786E-002	8.57163E-002	8.15752E-005	...........
	587	299.88	8.53041E-002	8.56458E-002	8.04919E-005	...........
	588	300.39	8.54619E-002	8.59208E-002	8.29919E-005	...........
	589	300.9	8.56060E-002	8.59689E-002	8.69085E-005	...........
	590	301.41	8.57293E-002	8.58292E-002	8.47918E-005	...........
	591	301.92	8.58192E-002	8.56892E-002	8.77418E-005	...........
	592	302.43	8.58454E-002	8.54440E-002	8.57252E-005	...........
	593	302.94	8.57921E-002	8.54432E-002	8.98584E-005	...........
	594	303.45	8.56839E-002	8.54851E-002	8.73585E-005	...........
	595	303.96	8.55733E-002	8.54466E-002	8.95084E-005	...........
	596	304.47	8.55000E-002	8.54884E-002	8.68751E-005	...........
	597	304.98	8.54670E-002	8.53906E-002	8.91918E-005	...........
	598	305.49	8.54491E-002	8.51631E-002	8.66418E-005	...........
	599	306	8.54182E-002	8.54569E-002	9.01084E-005	...........
	600	306.51	8.53819E-002	8.56277E-002	8.19085E-005	...........
	601	307.02	8.53889E-002	8.59040E-002	8.57752E-005	...........
	602	307.53	8.54769E-002	8.60099E-002	8.22419E-005	...........
	603	308.04	8.56243E-002	8.57193E-002	8.89584E-005	...........
	604	308.55	8.57592E-002	8.57347E-002	8.57085E-005	...........
	605	309.06	8.58229E-002	8.58637E-002	8.50418E-005	...........
	606	309.57	8.58255E-002	8.58158E-002	7.97753E-005	...........
	607	310.08	8.58072E-002	8.54419E-002	8.61251E-005	...........
	608	310.59	8.57675E-002	8.54114E-002	8.41418E-005	...........
	609	311.1	8.56882E-002	8.55856E-002	8.58585E-005	...........
	610	311.61	8.55998E-002	8.57591E-002	8.49252E-005	...........
	611	312.12	8.55636E-002	8.57674E-002	8.72918E-005	...........
	612	312.63	8.55970E-002	8.57038E-002	8.67585E-005	...........
	613	313.14	8.56626E-002	8.58837E-002	8.27419E-005	...........
	614	313.65	8.57228E-002	8.57698E-002	8.54252E-005	...........
	615	314.16	8.57709E-002	8.60394E-002	8.20419E-005	...........
	616	314.67	8.58155E-002	8.58201E-002	8.33585E-005	...........
	617	315.18	8.58527E-002	8.56695E-002	8.61085E-005	...........
	618	315.69	8.58570E-002	8.56777E-002	8.54085E-005	...........
	619	316.2	8.58104E-002	8.53689E-002	7.92253E-005	...........
	620	316.71	8.57173E-002	8.52559E-002	8.48585E-005	...........
	621	317.22	8.55836E-002	8.49072E-002	8.22919E-005	...........
	622	317.73	8.54178E-002	8.51226E-002	8.52918E-005	...........
	623	318.24	8.52684E-002	8.58849E-002	8.93918E-005	...........
	624	318.75	8.52368E-002	8.61770E-002	8.57585E-005	...........
	625	319.26	8.53913E-002	8.62642E-002	8.57418E-005	...........
	626	319.77	8.56716E-002	8.60353E-002	8.75085E-005	...........
	627	320.28	8.59253E-002	8.56926E-002	9.09584E-005	...........
	628	320.79	8.60346E-002	8.57965E-002	8.52918E-005	...........
	629	321.3	8.60032E-002	8.60541E-002	8.48585E-005	...........
	630	321.81	8.59452E-002	8.66278E-002	8.01586E-005	...........
	631	322.32	8.59888E-002	8.68232E-002	8.30752E-005	...........
	632	322.83	8.61754E-002	8.69379E-002	8.50252E-005	...........
	633	323.34	8.64201E-002	8.59175E-002	8.46252E-005	...........
	634	323.85	8.65842E-002	8.71767E-002	8.57918E-005	...........
	635	324.36	8.66300E-002	8.64546E-002	8.98751E-005	...........
	636	324.87	8.66226E-002	8.60657E-002	8.71418E-005	...........
	637	325.38	8.65750E-002	8.62275E-002	8.87418E-005	...........
	638	325.89	8.64647E-002	8.62581E-002	8.56251E-005	...........
	639	326.4	8.63545E-002	8.70490E-002	8.42418E-005	...........
	640	326.91	8.63648E-002	8.75195E-002	7.77419E-005	...........
	641	327.42	8.65672E-002	8.77630E-002	8.01752E-005	...........
	642	327.93	8.69122E-002	8.74428E-002	8.26919E-005	...........
	643	328.44	8.72406E-002	8.69475E-002	8.17419E-005	...........
	644	328.95	8.73917E-002	8.67478E-002	8.57585E-005	...........
	645	329.46	8.73213E-002	8.67060E-002	8.32752E-005	...........
	646	329.97	8.71179E-002	8.66324E-002	8.18419E-005	...........
	647	330.48	8.69047E-002	8.65817E-002	7.93086E-005	...........
	648	330.99	8.67543E-002	8.68926E-002	8.32752E-005	...........
	649	331.5	8.66998E-002	8.73446E-002	8.12419E-005	...........
	650	332.01	8.67702E-002	8.76342E-002	8.43252E-005	...........
	651	332.52	8.69683E-002	8.78276E-002	8.09252E-005	...........
	652	333.03	8.72315E-002	8.73526E-002	8.63918E-005	...........
	653	333.54	8.74468E-002	8.73860E-002	8.59585E-005	...........
	654	334.05	8.75214E-002	8.67432E-002	9.11084E-005	...........
	655	334.56	8.74322E-002	8.66515E-002	8.93418E-005	...........
	656	335.07	8.72194E-002	8.64969E-002	8.79751E-005	...........
	657	335.58	8.69654E-002	8.66989E-002	8.28252E-005	...........
	658	336.09	8.67693E-002	8.70501E-002	8.04252E-005	...........
	659	336.6	8.67157E-002	8.77622E-002	8.34585E-005	...........
	660	337.11	8.68662E-002	8.87858E-002	7.66420E-005	...........
	661	337.62	8.72337E-002	8.83437E-002	8.08419E-005	...........
	662	338.13	8.76962E-002	8.74621E-002	8.78918E-005	...........
	663	338.64	8.80015E-002	8.70598E-002	8.45418E-005	...........
	664	339.15	8.79778E-002	8.69825E-002	8.25419E-005	...........
	665	339.66	8.76962E-002	8.69935E-002	8.43085E-005	...........
	666	340.17	8.73612E-002	8.68287E-002	8.87751E-005	...........
	667	340.68	8.71118E-002	8.69333E-002	8.27752E-005	...........
	668	341.19	8.69777E-002	8.72080E-002	8.65918E-005	...........
	669	341.7	8.69629E-002	8.79885E-002	8.11419E-005	...........
	670	342.21	8.71011E-002	8.84601E-002	8.21419E-005	...........
	671	342.72	8.74045E-002	8.83886E-002	7.80586E-005	...........
	672	343.23	8.77793E-002	8.78460E-002	8.13752E-005	...........
	673	343.74	8.80448E-002	8.73567E-002	7.98086E-005	...........
	674	344.25	8.80690E-002	8.72394E-002	8.08252E-005	...........
	675	344.76	8.78753E-002	8.71897E-002	8.46752E-005	...........
	676	345.27	8.76048E-002	8.73162E-002	8.81918E-005	...........
	677	345.78	8.73925E-002	8.72967E-002	8.33419E-005	...........
	678	346.29	8.72898E-002	8.73815E-002	7.59753E-005	...........
	679	346.8	8.72867E-002	8.79751E-002	8.21752E-005	...........
	680	347.31	8.73779E-002	8.81618E-002	8.77918E-005	...........
	681	347.82	8.75672E-002	8.83494E-002	8.38252E-005	...........
	682	348.33	8.78095E-002	8.79185E-002	8.57418E-005	...........
	683	348.84	8.79883E-002	8.70287E-002	8.63751E-005	...........
	684	349.35	8.79801E-002	8.72899E-002	8.63085E-005	...........
	685	349.86	8.77839E-002	8.74444E-002	8.47585E-005	...........
	686	350.37	8.75439E-002	8.72714E-002	8.37252E-005	...........
	687	350.88	8.73908E-002	8.74219E-002	8.45918E-005	...........
	688	351.39	8.73470E-002	8.78418E-002	8.54418E-005	...........
	689	351.9	8.74040E-002	8.82792E-002	8.34419E-005	...........
	690	352.41	8.75624E-002	8.79665E-002	9.02251E-005	...........
	691	352.92	8.77713E-002	8.79863E-002	8.73751E-005	...........
	692	353.43	8.79308E-002	8.77610E-002	8.23585E-005	...........
	693	353.94	8.79810E-002	8.77710E-002	8.82418E-005	...........
	694	354.45	8.79402E-002	8.77429E-002	8.53418E-005	...........
	695	354.96	8.78634E-002	8.76846E-002	8.21752E-005	...........
	696	355.47	8.77928E-002	8.76893E-002	8.60918E-005	...........
	697	355.98	8.77428E-002	8.77267E-002	8.19585E-005	...........
	698	356.49	8.77208E-002	8.80240E-002	8.10419E-005	...........
	699	357	8.77477E-002	8.82957E-002	8.23419E-005	...........
	700	357.51	8.78437E-002	8.82402E-002	8.64585E-005	...........
	701	358.02	8.79811E-002	8.78758E-002	8.85918E-005	...........
	702	358.53	8.80830E-002	8.80446E-002	8.90751E-005	...........
	703	359.04	8.81027E-002	8.80191E-002	8.94584E-005	...........
	704	359.55	8.80698E-002	8.79915E-002	8.84918E-005	...........
	705	360.06	8.80326E-002	8.79342E-002	9.05584E-005	...........
	706	360.57	8.80043E-002	8.79104E-002	8.73085E-005	...........
	707	361.08	8.79789E-002	8.79863E-002	8.70251E-005	...........
	708	361.59	8.79657E-002	8.83056E-002	8.56752E-005	...........
	709	362.1	8.79958E-002	8.84851E-002	8.49752E-005	...........
	710	362.61	8.80921E-002	8.84804E-002	8.48918E-005	...........
	711	363.12	8.82285E-002	8.83177E-002	8.71918E-005	...........
	712	363.63	8.83394E-002	8.82586E-002	8.04086E-005	...........
	713	364.14	8.83781E-002	8.82123E-002	8.70085E-005	...........
	714	364.65	8.83502E-002	8.81717E-002	8.49252E-005	...........
	715	365.16	8.82917E-002	8.81453E-002	8.39918E-005	...........
	716	365.67	8.82348E-002	8.82226E-002	8.19585E-005	...........
	717	366.18	8.82004E-002	8.83357E-002	8.28585E-005	...........
	718	366.69	8.82072E-002	8.86289E-002	7.98586E-005	...........
	719	367.2	8.82825E-002	8.93055E-002	8.03419E-005	...........
	720	367.71	8.84632E-002	8.95451E-002	8.37419E-005	...........
	721	368.22	8.87397E-002	8.89091E-002	8.19252E-005	...........
	722	368.73	8.89932E-002	8.85192E-002	8.78251E-005	...........
	723	369.24	8.90700E-002	8.83241E-002	8.43085E-005	...........
	724	369.75	8.89370E-002	8.83048E-002	8.26585E-005	...........
	725	370.26	8.86999E-002	8.82319E-002	8.68251E-005	...........
	726	370.77	8.84831E-002	8.82901E-002	8.77085E-005	...........
	727	371.28	8.83492E-002	8.85003E-002	8.62751E-005	...........
	728	371.79	8.83132E-002	8.87326E-002	8.37919E-005	...........
	729	372.3	8.83794E-002	8.92500E-002	7.82919E-005	...........
	730	372.81	8.85467E-002	8.92797E-002	8.42085E-005	...........
	731	373.32	8.87757E-002	8.89008E-002	8.60418E-005	...........
	732	373.83	8.89668E-002	8.87090E-002	9.02251E-005	...........
	733	374.34	8.90215E-002	8.84142E-002	8.84084E-005	...........
	734	374.85	8.89310E-002	8.86721E-002	8.72085E-005	...........
	735	375.36	8.87740E-002	8.83517E-002	8.46752E-005	...........
	736	375.87	8.86328E-002	8.84818E-002	8.79918E-005	...........
	737	376.38	8.85405E-002	8.86612E-002	8.13252E-005	...........
	738	376.89	8.85119E-002	8.89777E-002	8.18919E-005	...........
	739	377.4	8.85621E-002	8.88164E-002	8.16252E-005	...........
	740	377.91	8.86735E-002	8.91364E-002	8.97751E-005	...........
	741	378.42	8.88016E-002	8.89993E-002	8.63418E-005	...........
	742	378.93	8.89080E-002	8.88461E-002	8.22585E-005	...........
	743	379.44	8.89626E-002	8.87817E-002	8.87751E-005	...........
	744	379.95	8.89515E-002	8.87792E-002	9.06584E-005	...........
	745	380.46	8.88952E-002	8.86922E-002	8.96418E-005	...........
	746	380.97	8.88283E-002	8.87220E-002	9.01918E-005	...........
	747	381.48	8.87782E-002	8.89913E-002	8.66752E-005	...........
	748	381.99	8.87772E-002	8.93791E-002	8.86251E-005	...........
	749	382.5	8.88639E-002	8.96265E-002	8.58085E-005	...........
	750	383.01	8.90414E-002	8.94307E-002	8.82918E-005	...........
	751	383.52	8.92441E-002	8.93626E-002	9.06084E-005	...........
	752	384.03	8.93779E-002	8.90489E-002	8.85584E-005	...........
	753	384.54	8.93917E-002	8.90008E-002	8.64751E-005	...........
	754	385.05	8.93045E-002	8.90209E-002	8.87084E-005	...........
	755	385.56	8.91805E-002	8.89634E-002	8.89918E-005	...........
	756	386.07	8.90805E-002	8.91305E-002	8.50085E-005	...........
	757	386.58	8.90389E-002	8.94235E-002	8.53585E-005	...........
	758	387.09	8.90794E-002	8.98066E-002	8.09086E-005	...........
	759	387.6	8.92052E-002	8.93231E-002	8.43918E-005	...........
	760	388.11	8.93688E-002	8.99874E-002	8.29585E-005	...........
	761	388.62	8.95116E-002	8.95460E-002	8.42252E-005	...........
	762	389.13	8.96041E-002	8.92821E-002	8.59751E-005	...........
	763	389.64	8.96176E-002	8.92558E-002	8.50918E-005	...........
	764	390.15	8.95413E-002	8.92330E-002	8.19919E-005	...........
	765	390.66	8.94209E-002	8.92094E-002	8.64418E-005	...........
	766	391.17	8.93195E-002	8.93885E-002	8.65085E-005	...........
	767	391.68	8.92780E-002	8.96948E-002	8.67418E-005	...........
	768	392.19	8.93264E-002	9.01951E-002	8.43252E-005	...........
	769	392.7	8.94882E-002	9.04968E-002	8.61585E-005	...........
	770	393.21	8.97486E-002	9.03391E-002	8.97918E-005	...........
	771	393.72	9.00143E-002	8.95409E-002	8.66752E-005	...........
	772	394.23	9.01433E-002	8.96055E-002	8.71251E-005	...........
	773	394.74	9.00699E-002	8.94233E-002	8.72085E-005	...........
	774	395.25	8.98689E-002	8.94252E-002	8.91251E-005	...........
	775	395.76	8.96621E-002	8.93712E-002	8.86584E-005	...........
	776	396.27	8.95190E-002	8.96107E-002	8.84585E-005	...........
	777	396.78	8.94636E-002	8.98893E-002	8.68251E-005	...........
	778	397.29	8.95092E-002	9.01956E-002	8.10252E-005	...........
	779	397.8	8.96557E-002	9.04051E-002	8.23085E-005	...........
	780	398.31	8.98695E-002	9.03384E-002	8.71918E-005	...........
	781	398.82	9.00707E-002	8.95514E-002	8.61585E-005	...........
	782	399.33	9.01470E-002	8.93970E-002	8.56918E-005	...........
	783	399.84	9.00382E-002	8.93984E-002	8.53918E-005	...........
	784	400.35	8.98115E-002	8.94564E-002	8.42418E-005	...........
	785	400.86	8.95983E-002	8.94023E-002	8.46085E-005	...........
	786	401.37	8.94736E-002	8.95488E-002	8.31585E-005	...........
	787	401.88	8.94427E-002	8.99071E-002	8.06586E-005	...........
	788	402.39	8.95002E-002	9.01447E-002	8.37419E-005	...........
	789	402.9	8.96389E-002	9.00373E-002	8.32585E-005	...........
	790	403.41	8.98082E-002	8.97766E-002	8.47418E-005	...........
	791	403.92	8.99211E-002	8.96710E-002	8.54252E-005	...........
	792	404.43	8.99268E-002	8.96737E-002	8.27585E-005	...........
	793	404.94	8.98525E-002	8.96462E-002	8.67085E-005	...........
	794	405.45	8.97592E-002	8.95261E-002	8.53918E-005	...........
	795	405.96	8.96840E-002	8.96836E-002	8.47085E-005	...........
	796	406.47	8.96382E-002	8.96854E-002	8.59585E-005	...........
