EXPLAIN
TAG	CORPOT
TITLE	LABEL	Open Circuit Potential	Test &Identifier
DATE	LABEL	12/10/2019	Date
TIME	LABEL	10:40:54	Time
NOTES	NOTES	1	&Notes...
	
PSTAT	PSTAT	REF600-16093	Potentiostat
TIMEOUT	QUANT	1.20000E+004	Total &Time (s)
SAMPLETIME	QUANT	5.00000E-001	Sa&mple Period (s)
STABILITY	QUANT	0.00000E+000	Sta&bility (mV/s)
PSTATMODEL	IQUANT	4	Pstat Model
PSTATSECTION	LABEL	REF600-16093	Pstat Section
PSTATSERIALNO	LABEL	16093	Pstat Serial Number
CTRLMODE	IQUANT	1	Control Mode
IESTAB	IQUANT	2	I/E Stability
CASPEED	IQUANT	2	Control Amp Speed
CONVENTION	IQUANT	1	Current Convention
ICHRANGE	IQUANT	2	Ich Range
ICHRANGEMODE	TOGGLE	T	Ich Auto Range
ICHOFFSETENABLE	TOGGLE	F	Ich Offset Enable
ICHOFFSET	QUANT	0	Ich Offset (V)
ICHFILTER	IQUANT	3	Ich Filter
VCHRANGE	IQUANT	3	Vch Range
VCHRANGEMODE	TOGGLE	T	Vch Auto Range
VCHOFFSETENABLE	TOGGLE	F	Vch Offset Enable
VCHOFFSET	QUANT	0	Vch Offset (V)
VCHFILTER	IQUANT	3	Vch Filter
ACHRANGE	IQUANT	2	Ach Range
ACHOFFSETENABLE	TOGGLE	F	Ach Offset Enable
ACHOFFSET	QUANT	0	Ach Offset (V)
ACHFILTER	IQUANT	1	Ach Filter
IERANGELOWERLIMIT	IQUANT	1	I/E Range Lower Limit
IERANGEMODE	TOGGLE	T	I/E AutoRange
IERANGE	IQUANT	10	I/E Range
POSFEEDENABLE	TOGGLE	F	Positive Feedback IR Comp
POSFEEDRESISTANCE	QUANT	0	Positive Feedback Resistance (ohm)
ACHSELECT	IQUANT	0	Ach Select
CABLEID	IQUANT	14	Cable ID
DCCALDATE	LABEL	11/5/2019	DC Calibration Date
ACCALDATE	LABEL		AC Calibration Date
THERMOSELECT	IQUANT	1	Thermo Select
FRAMEWORKVERSION	QUANT	6.12	Framework Version
INSTRUMENTVERSION	LABEL	3.11	Instrument Version
CURVE	TABLE	76
	Pt	T	Vf	Vm	Ach	Over
	#	s	V vs. Ref.	V	V	bits
	0	0.51	-1.11215E-001	-1.11215E-001	7.06420E-005	...........
	1	1.02	-1.11220E-001	-1.11437E-001	6.81754E-005	...........
	2	1.53	-1.11250E-001	-1.11862E-001	6.99087E-005	...........
	3	2.04	-1.11345E-001	-1.12105E-001	7.20254E-005	...........
	4	2.55	-1.11529E-001	-1.12349E-001	7.38253E-005	...........
	5	3.06	-1.11781E-001	-1.12710E-001	7.01587E-005	...........
	6	3.57	-1.12064E-001	-1.12877E-001	7.10920E-005	...........
	7	4.08	-1.12341E-001	-1.12708E-001	6.97254E-005	...........
	8	4.59	-1.12562E-001	-1.12533E-001	7.45420E-005	...........
	9	5.1	-1.12671E-001	-1.12279E-001	7.26420E-005	...........
	10	5.61	-1.12654E-001	-1.12430E-001	6.91421E-005	...........
	11	6.12	-1.12565E-001	-1.12663E-001	7.05587E-005	...........
	12	6.63	-1.12503E-001	-1.12950E-001	7.45087E-005	...........
	13	7.14	-1.12540E-001	-1.13156E-001	7.35587E-005	...........
	14	7.65	-1.12683E-001	-1.13323E-001	7.18587E-005	...........
	15	8.16	-1.12889E-001	-1.13669E-001	7.32087E-005	...........
	16	8.67	-1.13118E-001	-1.13789E-001	6.98921E-005	...........
	17	9.18	-1.13344E-001	-1.13610E-001	6.66921E-005	...........
	18	9.69	-1.13519E-001	-1.13251E-001	6.43921E-005	...........
	19	10.2	-1.13581E-001	-1.13062E-001	7.09754E-005	...........
	20	10.71	-1.13509E-001	-1.13103E-001	7.28587E-005	...........
	21	11.22	-1.13368E-001	-1.13527E-001	7.55753E-005	...........
	22	11.73	-1.13276E-001	-1.13879E-001	6.97754E-005	...........
	23	12.24	-1.13324E-001	-1.14092E-001	6.72088E-005	...........
	24	12.75	-1.13510E-001	-1.14251E-001	7.00421E-005	...........
	25	13.26	-1.13769E-001	-1.14742E-001	6.97421E-005	...........
	26	13.77	-1.14044E-001	-1.14694E-001	7.10254E-005	...........
	27	14.28	-1.14299E-001	-1.14436E-001	6.63421E-005	...........
	28	14.79	-1.14473E-001	-1.14082E-001	6.79921E-005	...........
	29	15.3	-1.14506E-001	-1.14050E-001	7.50253E-005	...........
	30	15.81	-1.14407E-001	-1.14034E-001	7.15254E-005	...........
	31	16.32	-1.14262E-001	-1.14392E-001	7.49753E-005	...........
	32	16.83	-1.14179E-001	-1.14697E-001	6.97754E-005	...........
	33	17.34	-1.14225E-001	-1.15077E-001	6.77754E-005	...........
	34	17.85	-1.14409E-001	-1.15429E-001	6.80754E-005	...........
	35	18.36	-1.14686E-001	-1.15352E-001	6.91754E-005	...........
	36	18.87	-1.14978E-001	-1.15504E-001	6.75921E-005	...........
	37	19.38	-1.15209E-001	-1.15210E-001	6.71921E-005	...........
	38	19.89	-1.15327E-001	-1.14899E-001	7.18587E-005	...........
	39	20.4	-1.15315E-001	-1.14832E-001	7.18087E-005	...........
	40	20.91	-1.15200E-001	-1.14966E-001	7.09420E-005	...........
	41	21.42	-1.15069E-001	-1.15467E-001	6.92754E-005	...........
	42	21.93	-1.15029E-001	-1.15620E-001	6.61088E-005	...........
	43	22.44	-1.15129E-001	-1.15816E-001	6.86754E-005	...........
	44	22.95	-1.15333E-001	-1.16151E-001	6.64754E-005	...........
	45	23.46	-1.15580E-001	-1.16344E-001	6.64421E-005	...........
	46	23.97	-1.15827E-001	-1.16151E-001	6.36922E-005	...........
	47	24.48	-1.16025E-001	-1.15832E-001	6.47088E-005	...........
	48	24.99	-1.16110E-001	-1.15682E-001	6.75254E-005	...........
	49	25.5	-1.16063E-001	-1.15726E-001	6.83588E-005	...........
	50	26.01	-1.15940E-001	-1.15805E-001	6.78254E-005	...........
	51	26.52	-1.15838E-001	-1.16269E-001	6.87421E-005	...........
	52	27.03	-1.15834E-001	-1.16434E-001	6.68588E-005	...........
	53	27.54	-1.15952E-001	-1.16642E-001	7.30087E-005	...........
	54	28.05	-1.16158E-001	-1.16962E-001	7.16920E-005	...........
	55	28.56	-1.16401E-001	-1.17175E-001	7.06087E-005	...........
	56	29.07	-1.16647E-001	-1.16964E-001	6.73921E-005	...........
	57	29.58	-1.16841E-001	-1.16464E-001	6.55255E-005	...........
	58	30.09	-1.16908E-001	-1.16334E-001	6.92254E-005	...........
	59	30.6	-1.16819E-001	-1.16260E-001	6.79254E-005	...........
	60	31.11	-1.16642E-001	-1.16602E-001	6.62921E-005	...........
	61	31.62	-1.16503E-001	-1.17075E-001	6.85754E-005	...........
	62	32.13	-1.16507E-001	-1.17222E-001	6.81754E-005	...........
	63	32.64	-1.16667E-001	-1.17494E-001	6.93754E-005	...........
	64	33.15	-1.16922E-001	-1.17765E-001	6.93421E-005	...........
	65	33.66	-1.17196E-001	-1.17783E-001	6.79588E-005	...........
	66	34.17	-1.17437E-001	-1.17571E-001	6.52755E-005	...........
	67	34.68	-1.17589E-001	-1.17080E-001	6.39588E-005	...........
	68	35.19	-1.17594E-001	-1.16717E-001	6.38255E-005	...........
	69	35.7	-1.17441E-001	-1.16911E-001	6.52588E-005	...........
	70	36.21	-1.17218E-001	-1.17368E-001	6.27422E-005	...........
	71	36.72	-1.17076E-001	-1.17783E-001	6.40755E-005	...........
	72	37.23	-1.17123E-001	-1.18009E-001	6.49088E-005	...........
	73	37.74	-1.17343E-001	-1.18227E-001	6.57755E-005	...........
	74	38.25	-1.17642E-001	-1.18490E-001	6.55088E-005	...........
	75	38.76	-1.17935E-001	-1.18403E-001	6.83088E-005	...........
