EXPLAIN
TAG	CORPOT
TITLE	LABEL	Open Circuit Potential	Test &Identifier
DATE	LABEL	12/9/2019	Date
TIME	LABEL	12:54:14	Time
NOTES	NOTES	1	&Notes...
	
PSTAT	PSTAT	REF600-16093	Potentiostat
TIMEOUT	QUANT	1.20000E+004	Total &Time (s)
SAMPLETIME	QUANT	5.00000E-001	Sa&mple Period (s)
STABILITY	QUANT	0.00000E+000	Sta&bility (mV/s)
PSTATMODEL	IQUANT	4	Pstat Model
PSTATSECTION	LABEL	REF600-16093	Pstat Section
PSTATSERIALNO	LABEL	16093	Pstat Serial Number
CTRLMODE	IQUANT	1	Control Mode
IESTAB	IQUANT	2	I/E Stability
CASPEED	IQUANT	2	Control Amp Speed
CONVENTION	IQUANT	1	Current Convention
ICHRANGE	IQUANT	2	Ich Range
ICHRANGEMODE	TOGGLE	T	Ich Auto Range
ICHOFFSETENABLE	TOGGLE	F	Ich Offset Enable
ICHOFFSET	QUANT	0	Ich Offset (V)
ICHFILTER	IQUANT	3	Ich Filter
VCHRANGE	IQUANT	3	Vch Range
VCHRANGEMODE	TOGGLE	T	Vch Auto Range
VCHOFFSETENABLE	TOGGLE	F	Vch Offset Enable
VCHOFFSET	QUANT	0	Vch Offset (V)
VCHFILTER	IQUANT	3	Vch Filter
ACHRANGE	IQUANT	2	Ach Range
ACHOFFSETENABLE	TOGGLE	F	Ach Offset Enable
ACHOFFSET	QUANT	0	Ach Offset (V)
ACHFILTER	IQUANT	1	Ach Filter
IERANGELOWERLIMIT	IQUANT	1	I/E Range Lower Limit
IERANGEMODE	TOGGLE	T	I/E AutoRange
IERANGE	IQUANT	10	I/E Range
POSFEEDENABLE	TOGGLE	F	Positive Feedback IR Comp
POSFEEDRESISTANCE	QUANT	0	Positive Feedback Resistance (ohm)
ACHSELECT	IQUANT	0	Ach Select
CABLEID	IQUANT	14	Cable ID
DCCALDATE	LABEL	11/5/2019	DC Calibration Date
ACCALDATE	LABEL		AC Calibration Date
THERMOSELECT	IQUANT	1	Thermo Select
FRAMEWORKVERSION	QUANT	6.12	Framework Version
INSTRUMENTVERSION	LABEL	3.11	Instrument Version
EXPERIMENTABORTED	TOGGLE	T	Experiment Aborted
CURVE	TABLE	90
	Pt	T	Vf	Vm	Ach	Over
	#	s	V vs. Ref.	V	V	bits
	0	0.51	-1.39541E-001	-1.39541E-001	6.06922E-005	...........
	1	1.02	-1.39510E-001	-1.37932E-001	6.26422E-005	...........
	2	1.53	-1.39385E-001	-1.39754E-001	6.39588E-005	...........
	3	2.04	-1.39183E-001	-1.38275E-001	6.36088E-005	...........
	4	2.55	-1.38984E-001	-1.37919E-001	6.45921E-005	...........
	5	3.06	-1.38841E-001	-1.41652E-001	6.51255E-005	...........
	6	3.57	-1.38880E-001	-1.38900E-001	6.03089E-005	...........
	7	4.08	-1.39134E-001	-1.37954E-001	6.64921E-005	...........
	8	4.59	-1.39334E-001	-1.40727E-001	6.35588E-005	...........
	9	5.1	-1.39337E-001	-1.38418E-001	6.93921E-005	...........
	10	5.61	-1.39265E-001	-1.38129E-001	6.69588E-005	...........
	11	6.12	-1.39161E-001	-1.40570E-001	6.24588E-005	...........
	12	6.63	-1.39091E-001	-1.39585E-001	6.57755E-005	...........
	13	7.14	-1.39171E-001	-1.38004E-001	5.83922E-005	...........
	14	7.65	-1.39279E-001	-1.39916E-001	6.22922E-005	...........
	15	8.16	-1.39250E-001	-1.38270E-001	6.28088E-005	...........
	16	8.67	-1.39109E-001	-1.37953E-001	6.29422E-005	...........
	17	9.18	-1.38948E-001	-1.41535E-001	6.62754E-005	...........
	18	9.69	-1.38969E-001	-1.40501E-001	6.65254E-005	...........
	19	10.2	-1.39335E-001	-1.39667E-001	6.20255E-005	...........
	20	10.71	-1.39860E-001	-1.41883E-001	6.33255E-005	...........
	21	11.22	-1.40263E-001	-1.39075E-001	6.14422E-005	...........
	22	11.73	-1.40404E-001	-1.38151E-001	5.77589E-005	...........
	23	12.24	-1.40203E-001	-1.40669E-001	6.40588E-005	...........
	24	12.75	-1.39809E-001	-1.38819E-001	6.05422E-005	...........
	25	13.26	-1.39497E-001	-1.38077E-001	6.40421E-005	...........
	26	13.77	-1.39286E-001	-1.40052E-001	6.71754E-005	...........
	27	14.28	-1.39119E-001	-1.38652E-001	6.16922E-005	...........
	28	14.79	-1.39026E-001	-1.37974E-001	6.06922E-005	...........
	29	15.3	-1.38980E-001	-1.41246E-001	6.42922E-005	...........
	30	15.81	-1.39019E-001	-1.38831E-001	6.34088E-005	...........
	31	16.32	-1.39178E-001	-1.38019E-001	6.70754E-005	...........
	32	16.83	-1.39283E-001	-1.40540E-001	6.51755E-005	...........
	33	17.34	-1.39245E-001	-1.38208E-001	6.33255E-005	...........
	34	17.85	-1.39183E-001	-1.39381E-001	6.37588E-005	...........
	35	18.36	-1.39179E-001	-1.40922E-001	6.62754E-005	...........
	36	18.87	-1.39298E-001	-1.39425E-001	6.31088E-005	...........
	37	19.38	-1.39517E-001	-1.38181E-001	6.01422E-005	...........
	38	19.89	-1.39608E-001	-1.39959E-001	6.69254E-005	...........
	39	20.4	-1.39493E-001	-1.39420E-001	6.87088E-005	...........
	40	20.91	-1.39330E-001	-1.37268E-001	6.39255E-005	...........
	41	21.42	-1.39177E-001	-1.40894E-001	6.77921E-005	...........
	42	21.93	-1.39067E-001	-1.39012E-001	6.82754E-005	...........
	43	22.44	-1.39083E-001	-1.37855E-001	6.03422E-005	...........
	44	22.95	-1.39130E-001	-1.40280E-001	6.86254E-005	...........
	45	23.46	-1.39099E-001	-1.38343E-001	6.95087E-005	...........
	46	23.97	-1.39020E-001	-1.37074E-001	6.62588E-005	...........
	47	24.48	-1.38860E-001	-1.40418E-001	6.85088E-005	...........
	48	24.99	-1.38704E-001	-1.39372E-001	6.70254E-005	...........
	49	25.5	-1.38743E-001	-1.37523E-001	7.21587E-005	...........
	50	26.01	-1.38882E-001	-1.40032E-001	6.93087E-005	...........
	51	26.52	-1.38942E-001	-1.38924E-001	6.57921E-005	...........
	52	27.03	-1.38967E-001	-1.38572E-001	6.60088E-005	...........
	53	27.54	-1.39042E-001	-1.41578E-001	6.59755E-005	...........
	54	28.05	-1.39267E-001	-1.41188E-001	6.37088E-005	...........
	55	28.56	-1.39758E-001	-1.41244E-001	6.47255E-005	...........
	56	29.07	-1.40376E-001	-1.40440E-001	6.73588E-005	...........
	57	29.58	-1.40809E-001	-1.40743E-001	6.20589E-005	...........
	58	30.09	-1.40933E-001	-1.40818E-001	6.12589E-005	...........
	59	30.6	-1.40872E-001	-1.40597E-001	6.31088E-005	...........
	60	31.11	-1.40808E-001	-1.41961E-001	6.13922E-005	...........
	61	31.62	-1.40865E-001	-1.41523E-001	6.44255E-005	...........
	62	32.13	-1.41066E-001	-1.41358E-001	6.43422E-005	...........
	63	32.64	-1.41289E-001	-1.40983E-001	6.23922E-005	...........
	64	33.15	-1.41376E-001	-1.40839E-001	6.64921E-005	...........
	65	33.66	-1.41299E-001	-1.41080E-001	6.88588E-005	...........
	66	34.17	-1.41159E-001	-1.41256E-001	6.75921E-005	...........
	67	34.68	-1.41099E-001	-1.42518E-001	6.61921E-005	...........
	68	35.19	-1.41209E-001	-1.41044E-001	7.30087E-005	...........
	69	35.7	-1.41404E-001	-1.40987E-001	6.81588E-005	...........
	70	36.21	-1.41485E-001	-1.41047E-001	6.69088E-005	...........
	71	36.72	-1.41358E-001	-1.39639E-001	6.35588E-005	...........
	72	37.23	-1.41071E-001	-1.40615E-001	6.19922E-005	...........
	73	37.74	-1.40756E-001	-1.41547E-001	5.74423E-005	...........
	74	38.25	-1.40624E-001	-1.41735E-001	6.09089E-005	...........
	75	38.76	-1.40767E-001	-1.40350E-001	6.17255E-005	...........
	76	39.27	-1.40964E-001	-1.39525E-001	6.18922E-005	...........
	77	39.78	-1.40911E-001	-1.40167E-001	5.78922E-005	...........
	78	40.29	-1.40596E-001	-1.39930E-001	5.16423E-005	...........
	79	40.8	-1.40292E-001	-1.42032E-001	5.62589E-005	...........
	80	41.31	-1.40261E-001	-1.40536E-001	6.10255E-005	...........
	81	41.82	-1.40485E-001	-1.40408E-001	5.93589E-005	...........
	82	42.33	-1.40708E-001	-1.40756E-001	6.14589E-005	...........
	83	42.84	-1.40752E-001	-1.40069E-001	6.29588E-005	...........
	84	43.35	-1.40659E-001	-1.40572E-001	5.37590E-005	...........
	85	43.86	-1.40554E-001	-1.41461E-001	6.37088E-005	...........
	86	44.37	-1.40579E-001	-1.41798E-001	6.16422E-005	...........
	87	44.88	-1.40791E-001	-1.40615E-001	6.03089E-005	...........
	88	45.39	-1.41022E-001	-1.39895E-001	6.40088E-005	...........
	89	45.9	-1.41024E-001	-1.40221E-001	5.58423E-005	...........
